# energy grid [eV]     ieps_x  ieps_y  ieps_z
#
    0.050000000    1.383212856    1.381676107    1.382309571
    0.054954955    1.382959915    1.381424494    1.382057410
    0.059909910    1.382691630    1.381157618    1.381789953
    0.064864865    1.382408844    1.380876316    1.381508040
    0.069819820    1.382112260    1.380581289    1.381212371
    0.074774775    1.381802469    1.380273124    1.380903535
    0.079729730    1.381479965    1.379952312    1.380582026
    0.084684685    1.381145169    1.379619272    1.380248263
    0.089639640    1.380798440    1.379274361    1.379902602
    0.094594595    1.380440087    1.378917887    1.379545353
    0.099549550    1.380070380    1.378550117    1.379176785
    0.104504505    1.379689556    1.378171289    1.378797134
    0.109459459    1.379297828    1.377781613    1.378406613
    0.114414414    1.378895388    1.377381281    1.378005411
    0.119369369    1.378482411    1.376970466    1.377593705
    0.124324324    1.378059059    1.376549330    1.377171656
    0.129279279    1.377625483    1.376118023    1.376739413
    0.134234234    1.377181826    1.375676686    1.376297120
    0.139189189    1.376728223    1.375225455    1.375844912
    0.144144144    1.376264805    1.374764460    1.375382918
    0.149099099    1.375791697    1.374293824    1.374911263
    0.154054054    1.375309021    1.373813669    1.374430069
    0.159009009    1.374816896    1.373324114    1.373939455
    0.163963964    1.374315439    1.372825275    1.373439537
    0.168918919    1.373804766    1.372317267    1.372930430
    0.173873874    1.373284989    1.371800201    1.372412247
    0.178828829    1.372756222    1.371274191    1.371885100
    0.183783784    1.372218577    1.370739348    1.371349102
    0.188738739    1.371672164    1.370195782    1.370804362
    0.193693694    1.371117094    1.369643603    1.370250992
    0.198648649    1.370553479    1.369082923    1.369689102
    0.203603604    1.369981429    1.368513849    1.369118801
    0.208558559    1.369401054    1.367936492    1.368540201
    0.213513514    1.368812464    1.367350963    1.367953410
    0.218468468    1.368215770    1.366757370    1.367358539
    0.223423423    1.367611084    1.366155824    1.366755698
    0.228378378    1.366998514    1.365546435    1.366144998
    0.233333333    1.366378173    1.364929314    1.365526549
    0.238288288    1.365750171    1.364304570    1.364900462
    0.243243243    1.365114620    1.363672314    1.364266848
    0.248198198    1.364471631    1.363032657    1.363625818
    0.253153153    1.363821315    1.362385710    1.362977482
    0.258108108    1.363163785    1.361731584    1.362321953
    0.263063063    1.362499152    1.361070390    1.361659342
    0.268018018    1.361827528    1.360402240    1.360989760
    0.272972973    1.361149026    1.359727244    1.360313319
    0.277927928    1.360463757    1.359045516    1.359630131
    0.282882883    1.359771833    1.358357166    1.358940308
    0.287837838    1.359073368    1.357662305    1.358243961
    0.292792793    1.358368473    1.356961046    1.357541204
    0.297747748    1.357657261    1.356253500    1.356832146
    0.302702703    1.356939843    1.355539779    1.356116902
    0.307657658    1.356216332    1.354819994    1.355395581
    0.312612613    1.355486840    1.354094256    1.354668296
    0.317567568    1.354751479    1.353362678    1.353935158
    0.322522523    1.354010361    1.352625369    1.353196279
    0.327477477    1.353263597    1.351882441    1.352451770
    0.332432432    1.352511298    1.351134005    1.351701742
    0.337387387    1.351753576    1.350380171    1.350946305
    0.342342342    1.350990542    1.349621049    1.350185571
    0.347297297    1.350222305    1.348856750    1.349419648
    0.352252252    1.349448976    1.348087382    1.348648648
    0.357207207    1.348670666    1.347313055    1.347872679
    0.362162162    1.347887483    1.346533878    1.347091851
    0.367117117    1.347099536    1.345749960    1.346306272
    0.372072072    1.346306935    1.344961407    1.345516050
    0.377027027    1.345509787    1.344168329    1.344721294
    0.381981982    1.344708199    1.343370831    1.343922111
    0.386936937    1.343902280    1.342569020    1.343118607
    0.391891892    1.343092135    1.341763003    1.342310888
    0.396846847    1.342277871    1.340952885    1.341499061
    0.401801802    1.341459593    1.340138770    1.340683230
    0.406756757    1.340637405    1.339320763    1.339863500
    0.411711712    1.339811413    1.338498967    1.339039974
    0.416666667    1.338981720    1.337673486    1.338212757
    0.421621622    1.338148428    1.336844422    1.337381950
    0.426576577    1.337311639    1.336011876    1.336547655
    0.431531532    1.336471456    1.335175950    1.335709974
    0.436486486    1.335627979    1.334336743    1.334869007
    0.441441441    1.334781308    1.333494355    1.334024854
    0.446396396    1.333931542    1.332648885    1.333177613
    0.451351351    1.333078780    1.331800430    1.332327383
    0.456306306    1.332223119    1.330949088    1.331474260
    0.461261261    1.331364656    1.330094955    1.330618343
    0.466216216    1.330503488    1.329238127    1.329759726
    0.471171171    1.329639709    1.328378698    1.328898503
    0.476126126    1.328773414    1.327516762    1.328034771
    0.481081081    1.327904696    1.326652412    1.327168620
    0.486036036    1.327033647    1.325785740    1.326300144
    0.490990991    1.326160361    1.324916837    1.325429435
    0.495945946    1.325284927    1.324045794    1.324556581
    0.500900901    1.324407434    1.323172700    1.323681675
    0.505855856    1.323527974    1.322297644    1.322804803
    0.510810811    1.322646632    1.321420712    1.321926053
    0.515765766    1.321763497    1.320541993    1.321045514
    0.520720721    1.320878654    1.319661570    1.320163269
    0.525675676    1.319992189    1.318779530    1.319279405
    0.530630631    1.319104186    1.317895956    1.318394006
    0.535585586    1.318214728    1.317010931    1.317507153
    0.540540541    1.317323898    1.316124536    1.316618930
    0.545495495    1.316431777    1.315236853    1.315729418
    0.550450450    1.315538445    1.314347962    1.314838696
    0.555405405    1.314643982    1.313457941    1.313946844
    0.560360360    1.313748466    1.312566868    1.313053940
    0.565315315    1.312851974    1.311674821    1.312160061
    0.570270270    1.311954584    1.310781875    1.311265283
    0.575225225    1.311056369    1.309888106    1.310369681
    0.580180180    1.310157405    1.308993587    1.309473330
    0.585135135    1.309257766    1.308098392    1.308576303
    0.590090090    1.308357523    1.307202593    1.307678672
    0.595045045    1.307456748    1.306306259    1.306780508
    0.600000000    1.306555511    1.305409463    1.305881881
    0.604954955    1.305653882    1.304512272    1.304982861
    0.609909910    1.304751929    1.303614755    1.304083515
    0.614864865    1.303849720    1.302716979    1.303183912
    0.619819820    1.302947321    1.301819010    1.302284117
    0.624774775    1.302044798    1.300920913    1.301384195
    0.629729730    1.301142214    1.300022752    1.300484211
    0.634684685    1.300239634    1.299124590    1.299584228
    0.639639640    1.299337120    1.298226490    1.298684309
    0.644594595    1.298434733    1.297328513    1.297784514
    0.649549550    1.297532535    1.296430718    1.296884904
    0.654504505    1.296630584    1.295533165    1.295985538
    0.659459459    1.295728939    1.294635913    1.295086476
    0.664414414    1.294827657    1.293739019    1.294187773
    0.669369369    1.293926796    1.292842539    1.293289487
    0.674324324    1.293026412    1.291946528    1.292391673
    0.679279279    1.292126558    1.291051041    1.291494386
    0.684234234    1.291227288    1.290156132    1.290597680
    0.689189189    1.290328657    1.289261853    1.289701607
    0.694144144    1.289430714    1.288368256    1.288806218
    0.699099099    1.288533512    1.287475391    1.287911566
    0.704054054    1.287637101    1.286583309    1.287017699
    0.709009009    1.286741530    1.285692059    1.286124668
    0.713963964    1.285846846    1.284801687    1.285232519
    0.718918919    1.284953098    1.283912243    1.284341300
    0.723873874    1.284060332    1.283023771    1.283451059
    0.728828829    1.283168593    1.282136317    1.282561839
    0.733783784    1.282277927    1.281249927    1.281673685
    0.738738739    1.281388377    1.280364642    1.280786643
    0.743693694    1.280499985    1.279480507    1.279900753
    0.748648649    1.279612795    1.278597563    1.279016059
    0.753603604    1.278726848    1.277715851    1.278132601
    0.758558559    1.277842183    1.276835411    1.277250420
    0.763513514    1.276958841    1.275956284    1.276369555
    0.768468468    1.276076861    1.275078507    1.275490045
    0.773423423    1.275196279    1.274202118    1.274611928
    0.778378378    1.274317135    1.273327155    1.273735241
    0.783333333    1.273439463    1.272453653    1.272860021
    0.788288288    1.272563300    1.271581648    1.271986302
    0.793243243    1.271688679    1.270711174    1.271114119
    0.798198198    1.270815637    1.269842266    1.270243507
    0.803153153    1.269944205    1.268974957    1.269374498
    0.808108108    1.269074416    1.268109279    1.268507125
    0.813063063    1.268206302    1.267245263    1.267641420
    0.818018018    1.267339893    1.266382941    1.266777414
    0.822972973    1.266475221    1.265522342    1.265915136
    0.827927928    1.265612315    1.264663497    1.265054617
    0.832882883    1.264751204    1.263806433    1.264195885
    0.837837838    1.263891915    1.262951180    1.263338968
    0.842792793    1.263034477    1.262097763    1.262483894
    0.847747748    1.262178916    1.261246211    1.261630689
    0.852702703    1.261325258    1.260396548    1.260779379
    0.857657658    1.260473529    1.259548801    1.259929991
    0.862612613    1.259623753    1.258702994    1.259082548
    0.867567568    1.258775955    1.257859151    1.258237074
    0.872522523    1.257930158    1.257017295    1.257393594
    0.877477477    1.257086385    1.256177450    1.256552130
    0.882432432    1.256244658    1.255339637    1.255712703
    0.887387387    1.255404999    1.254503878    1.254875337
    0.892342342    1.254567429    1.253670194    1.254040051
    0.897297297    1.253731969    1.252838605    1.253206866
    0.902252252    1.252898637    1.252009131    1.252375802
    0.907207207    1.252067454    1.251181791    1.251546878
    0.912162162    1.251238438    1.250356604    1.250720112
    0.917117117    1.250411607    1.249533587    1.249895524
    0.922072072    1.249586979    1.248712760    1.249073129
    0.927027027    1.248764571    1.247894137    1.248252946
    0.931981982    1.247944399    1.247077736    1.247434991
    0.936936937    1.247126479    1.246263573    1.246619279
    0.941891892    1.246310827    1.245451663    1.245805827
    0.946846847    1.245497458    1.244642021    1.244994648
    0.951801802    1.244686385    1.243834661    1.244185758
    0.956756757    1.243877624    1.243029597    1.243379170
    0.961711712    1.243071187    1.242226843    1.242574898
    0.966666667    1.242267087    1.241426411    1.241772954
    0.971621622    1.241465337    1.240628314    1.240973351
    0.976576577    1.240665949    1.239832564    1.240176102
    0.981531532    1.239868934    1.239039172    1.239381216
    0.986486486    1.239074304    1.238248150    1.238588707
    0.991441441    1.238282069    1.237459508    1.237798584
    0.996396396    1.237492239    1.236673256    1.237010857
    1.001351351    1.236704824    1.235889404    1.236225537
    1.006306306    1.235919834    1.235107962    1.235442632
    1.011261261    1.235137277    1.234328938    1.234662152
    1.016216216    1.234357163    1.233552341    1.233884105
    1.021171171    1.233579498    1.232778179    1.233108499
    1.026126126    1.232804291    1.232006460    1.232335342
    1.031081081    1.232031550    1.231237192    1.231564642
    1.036036036    1.231261281    1.230470380    1.230796406
    1.040990991    1.230493492    1.229706032    1.230030639
    1.045945946    1.229728187    1.228944154    1.229267349
    1.050900901    1.228965374    1.228184753    1.228506541
    1.055855856    1.228205057    1.227427833    1.227748220
    1.060810811    1.227447242    1.226673400    1.226992393
    1.065765766    1.226691934    1.225921458    1.226239064
    1.070720721    1.225939138    1.225172013    1.225488238
    1.075675676    1.225188857    1.224425068    1.224739918
    1.080630631    1.224441096    1.223680628    1.223994108
    1.085585586    1.223695858    1.222938695    1.223250813
    1.090540541    1.222953146    1.222199275    1.222510036
    1.095495495    1.222212964    1.221462368    1.221771779
    1.100450450    1.221475314    1.220727978    1.221036046
    1.105405405    1.220740198    1.219996108    1.220302838
    1.110360360    1.220007619    1.219266760    1.219572158
    1.115315315    1.219277578    1.218539935    1.218844007
    1.120270270    1.218550078    1.217815635    1.218118388
    1.125225225    1.217825119    1.217093862    1.217395302
    1.130180180    1.217102703    1.216374616    1.216674749
    1.135135135    1.216382829    1.215657899    1.215956731
    1.140090090    1.215665500    1.214943710    1.215241247
    1.145045045    1.214950715    1.214232051    1.214528299
    1.150000000    1.214238473    1.213522921    1.213817887
    1.154954955    1.213528776    1.212816320    1.213110010
    1.159909910    1.212821623    1.212112248    1.212404667
    1.164864865    1.212117012    1.211410704    1.211701859
    1.169819820    1.211414943    1.210711688    1.211001585
    1.174774775    1.210715416    1.210015198    1.210303843
    1.179729730    1.210018428    1.209321233    1.209608632
    1.184684685    1.209323979    1.208629792    1.208915951
    1.189639640    1.208632066    1.207940873    1.208225798
    1.194594595    1.207942689    1.207254474    1.207538171
    1.199549550    1.207255844    1.206570594    1.206853069
    1.204504505    1.206571529    1.205889229    1.206170488
    1.209459459    1.205889742    1.205210379    1.205490427
    1.214414414    1.205210481    1.204534039    1.204812883
    1.219369369    1.204533743    1.203860207    1.204137854
    1.224324324    1.203859524    1.203188882    1.203465335
    1.229279279    1.203187822    1.202520058    1.202795325
    1.234234234    1.202518633    1.201853734    1.202127820
    1.239189189    1.201851955    1.201189905    1.201462817
    1.244144144    1.201187782    1.200528568    1.200800311
    1.249099099    1.200526112    1.199869720    1.200140300
    1.254054054    1.199866941    1.199213357    1.199482779
    1.259009009    1.199210264    1.198559474    1.198827744
    1.263963964    1.198556078    1.197908067    1.198175192
    1.268918919    1.197904377    1.197259133    1.197525118
    1.273873874    1.197255159    1.196612667    1.196877517
    1.278828829    1.196608418    1.195968664    1.196232385
    1.283783784    1.195964149    1.195327120    1.195589718
    1.288738739    1.195322347    1.194688030    1.194949510
    1.293693694    1.194683009    1.194051388    1.194311757
    1.298648649    1.194046128    1.193417191    1.193676453
    1.303603604    1.193411699    1.192785433    1.193043594
    1.308558559    1.192779717    1.192156108    1.192413174
    1.313513514    1.192150178    1.191529211    1.191785188
    1.318468468    1.191523074    1.190904738    1.191159630
    1.323423423    1.190898401    1.190282682    1.190536495
    1.328378378    1.190276153    1.189663037    1.189915778
    1.333333333    1.189656325    1.189045798    1.189297471
    1.338288288    1.189038909    1.188430960    1.188681571
    1.343243243    1.188423901    1.187818516    1.188068070
    1.348198198    1.187811295    1.187208460    1.187456962
    1.353153153    1.187201083    1.186600786    1.186848242
    1.358108108    1.186593261    1.185995488    1.186241904
    1.363063063    1.185987821    1.185392560    1.185637940
    1.368018018    1.185384757    1.184791995    1.185036345
    1.372972973    1.184784063    1.184193787    1.184437113
    1.377927928    1.184185732    1.183597930    1.183840236
    1.382882883    1.183589758    1.183004417    1.183245708
    1.387837838    1.182996134    1.182413241    1.182653523
    1.392792793    1.182404853    1.181824395    1.182063674
    1.397747748    1.181815909    1.181237874    1.181476154
    1.402702703    1.181229294    1.180653670    1.180890956
    1.407657658    1.180645002    1.180071776    1.180308073
    1.412612613    1.180063026    1.179492185    1.179727500
    1.417567568    1.179483359    1.178914891    1.179149227
    1.422522523    1.178905993    1.178339887    1.178573249
    1.427477477    1.178330921    1.177767164    1.177999558
    1.432432432    1.177758137    1.177196717    1.177428148
    1.437387387    1.177187633    1.176628538    1.176859011
    1.442342342    1.176619402    1.176062620    1.176292139
    1.447297297    1.176053437    1.175498955    1.175727526
    1.452252252    1.175489729    1.174937536    1.175165163
    1.457207207    1.174928273    1.174378357    1.174605045
    1.462162162    1.174369059    1.173821409    1.174047163
    1.467117117    1.173812082    1.173266685    1.173491510
    1.472072072    1.173257333    1.172714177    1.172938079
    1.477027027    1.172704804    1.172163879    1.172386861
    1.481981982    1.172154489    1.171615783    1.171837850
    1.486936937    1.171606380    1.171069880    1.171291038
    1.491891892    1.171060468    1.170526165    1.170746417
    1.496846847    1.170516747    1.169984628    1.170203980
    1.501801802    1.169975208    1.169445262    1.169663719
    1.506756757    1.169435845    1.168908060    1.169125626
    1.511711712    1.168898649    1.168373015    1.168589694
    1.516666667    1.168363612    1.167840117    1.168055914
    1.521621622    1.167830727    1.167309360    1.167524280
    1.526576577    1.167299985    1.166780736    1.166994783
    1.531531532    1.166771380    1.166254237    1.166467416
    1.536486486    1.166244903    1.165729855    1.165942171
    1.541441441    1.165720547    1.165207583    1.165419039
    1.546396396    1.165198303    1.164687413    1.164898014
    1.551351351    1.164678164    1.164169336    1.164379088
    1.556306306    1.164160121    1.163653346    1.163862251
    1.561261261    1.163644168    1.163139434    1.163347498
    1.566216216    1.163130296    1.162627592    1.162834819
    1.571171171    1.162618496    1.162117813    1.162324207
    1.576126126    1.162108762    1.161610088    1.161815654
    1.581081081    1.161601085    1.161104411    1.161309152
    1.586036036    1.161095458    1.160600772    1.160804694
    1.590990991    1.160591872    1.160099164    1.160302270
    1.595945946    1.160090319    1.159599580    1.159801874
    1.600900901    1.159590792    1.159102010    1.159303498
    1.605855856    1.159093282    1.158606448    1.158807133
    1.610810811    1.158597782    1.158112886    1.158312772
    1.615765766    1.158104284    1.157621315    1.157820407
    1.620720721    1.157612779    1.157131728    1.157330029
    1.625675676    1.157123260    1.156644117    1.156841632
    1.630630631    1.156635719    1.156158474    1.156355206
    1.635585586    1.156150148    1.155674791    1.155870745
    1.640540541    1.155666539    1.155193060    1.155388240
    1.645495495    1.155184884    1.154713273    1.154907683
    1.650450450    1.154705175    1.154235423    1.154429066
    1.655405405    1.154227404    1.153759501    1.153952382
    1.660360360    1.153751564    1.153285500    1.153477623
    1.665315315    1.153277645    1.152813412    1.153004780
